Torque Curves with Flux-Weakening Control
Speed (rpm)
Torque (N.m)
0	5478.843608
1.56	5556.846203
3.12	5636.829851
4.68	5718.851728
6.24	5802.969117
7.8	5889.239018
9.36	5977.717659
10.92	6068.459907
12.48	6161.518541
14.04	6256.943362
15.6	6354.780128
17.16	6455.069245
18.72	6557.844189
20.28	6663.129602
21.84	6770.938973
23.4	6881.271849
24.96	6994.110449
26.52	7109.415579
28.08	7227.121674
29.64	7347.130800
31.2	7469.305388
32.76	7593.459403
34.32	7719.347634
35.88	7846.652664
37.44	7974.969020
39	8103.783856
40.56	8232.453407
42.12	8360.174244
43.68	8485.948178
45.24	8608.539379
46.8	8726.421983
48.36	8837.716118
49.92	8940.109864
51.48	9030.764258
53.04	9106.198027
54.6	9162.148413
56.16	9193.404309
57.72	9193.608244
59.28	9155.024821
60.84	9068.275673
62.4	8922.045654
63.96	8702.773189
65.52	8394.351174
67.08	7977.885797
68.64	7431.591535
70.2	6730.942858
71.76	5849.255513
73.32	4758.924436
74.88	3433.580506
76.44	1851.404566
78	0.000000
Torque_3.9Hz_46.3152V
0	3381.450271
3.12	3442.741912
6.24	3506.233535
9.36	3572.041501
12.48	3640.290120
15.6	3711.112291
18.72	3784.650198
21.84	3861.056061
24.96	3940.492948
28.08	4023.135661
31.2	4109.171678
34.32	4198.802168
37.44	4292.243079
40.56	4389.726283
43.68	4491.500786
46.8	4597.833975
49.92	4709.012896
53.04	4825.345525
56.16	4947.161974
59.28	5074.815587
62.4	5208.683793
65.52	5349.168605
68.64	5496.696535
71.76	5651.717647
74.88	5814.703337
78	5986.142258
81.12	6166.533580
84.24	6356.376406
87.36	6556.153733
90.48	6766.308575
93.6	6987.208945
96.72	7219.096878
99.84	7462.014633
102.96	7715.698140
106.08	7979.423389
109.2	8251.785033
112.32	8530.377358
115.44	8811.334742
118.56	9088.670759
121.68	9353.331454
124.8	9591.849962
127.92	9784.463029
131.04	9902.544224
134.16	9905.271976
137.28	9735.689015
140.4	9316.925695
143.52	8550.661843
146.64	7322.134087
149.76	5518.630622
152.88	3068.583401
156	0.000000
Torque_7.8Hz_84.7493V
0	2323.683404
4.68	2368.520434
9.36	2415.100486
14.04	2463.525800
18.72	2513.906635
23.4	2566.362065
28.08	2621.020853
32.76	2678.022437
37.44	2737.518031
42.12	2799.671867
46.8	2864.662581
51.48	2932.684787
56.16	3003.950842
60.84	3078.692847
65.52	3157.164908
70.2	3239.645696
74.88	3326.441359
79.56	3417.888820
84.24	3514.359527
88.92	3616.263723
93.6	3724.055290
98.28	3838.237253
102.96	3959.368022
107.64	4088.068443
112.32	4225.029722
117	4371.022272
121.68	4526.905457
126.36	4693.638137
131.04	4872.289742
135.72	5064.051327
140.4	5270.245572
145.08	5492.333932
149.76	5731.917789
154.44	5990.728264
159.12	6270.595630
163.8	6573.383001
168.48	6900.858296
173.16	7254.460190
177.84	7634.882230
182.52	8041.344625
187.2	8470.328581
191.88	8913.385873
196.56	9353.366604
201.24	9757.991608
205.92	10069.168728
210.6	10186.206039
215.28	9942.699519
219.96	9085.003861
224.64	7283.632245
229.32	4247.549059
234	0.000000
Torque_11.7Hz_123.266V
0	1748.081912
6.24	1782.626555
12.48	1818.554519
18.72	1855.949974
24.96	1894.904003
31.2	1935.515320
37.44	1977.891078
43.68	2022.147781
49.92	2068.412318
56.16	2116.823126
62.4	2167.531526
68.64	2220.703232
74.88	2276.520080
81.12	2335.182009
87.36	2396.909334
93.6	2461.945361
99.84	2530.559412
106.08	2603.050323
112.32	2679.750513
118.56	2761.030718
124.8	2847.305528
131.04	2939.039880
137.28	3036.756683
143.52	3141.045821
149.76	3252.574783
156	3372.101279
162.24	3500.488206
168.48	3638.721459
174.72	3787.931115
180.96	3949.416611
187.2	4124.676561
193.44	4315.443844
199.68	4523.726359
205.92	4751.853318
212.16	5002.525711
218.4	5278.866965
224.64	5584.464571
230.88	5923.382857
237.12	6300.105939
243.36	6719.327280
249.6	7185.415761
255.84	7701.210361
262.08	8265.426994
268.32	8867.196287
274.56	9474.697378
280.8	10011.931909
287.04	10313.481291
293.28	10047.598168
299.52	8635.015124
305.76	5348.949236
312	0.000000
Torque_15.6Hz_161.81V
0	1394.853790
7.8	1422.735317
15.6	1451.749154
23.4	1481.965385
31.2	1513.459973
39	1546.315382
46.8	1580.621285
54.6	1616.475365
62.4	1653.984222
70.2	1693.264411
78	1734.443619
85.8	1777.662018
93.6	1823.073817
101.4	1870.849050
109.2	1921.175635
117	1974.261772
124.8	2030.338723
132.6	2089.664056
140.4	2152.525454
148.2	2219.245184
156	2290.185383
163.8	2365.754318
171.6	2446.413851
179.4	2532.688357
187.2	2625.175447
195	2724.558924
202.8	2831.624483
210.6	2947.278871
218.4	3072.573350
226.2	3208.732581
234	3357.190319
241.8	3519.633719
249.6	3698.058449
257.4	3894.837333
265.2	4112.805681
273	4355.366630
280.8	4626.619167
288.6	4931.508626
296.4	5275.991371
304.2	5667.184780
312	6113.423746
319.8	6624.024861
327.6	7208.269355
335.4	7872.404754
343.2	8611.698744
351	9390.195641
358.8	10090.500164
366.6	10396.705364
374.4	9574.341695
382.2	6352.047101
390	0.000000
Torque_19.5Hz_200.368V
0	1158.131888
9.36	1181.428856
18.72	1205.679292
28.08	1230.942762
37.44	1257.283889
46.8	1284.772887
56.16	1313.486185
65.52	1343.507122
74.88	1374.926747
84.24	1407.844725
93.6	1442.370375
102.96	1478.623866
112.32	1516.737586
121.68	1556.857728
131.04	1599.146127
140.4	1643.782397
149.76	1690.966420
159.12	1740.921272
168.48	1793.896657
177.84	1850.172970
187.2	1910.066118
196.56	1973.933265
205.92	2042.179726
215.28	2115.267265
224.64	2193.724146
234	2278.157378
243.36	2369.267723
252.72	2467.868197
262.08	2574.907037
271.44	2691.496394
280.8	2818.948447
290.16	2958.821148
299.52	3112.976623
308.88	3283.656202
318.24	3473.577440
327.6	3686.060235
336.96	3925.191214
346.32	4196.037751
355.68	4504.924030
365.04	4859.778184
374.4	5270.542238
383.76	5749.579151
393.12	6311.840354
402.48	6974.062639
411.84	7750.823967
421.2	8641.025205
430.56	9585.659746
439.92	10342.129406
449.28	10152.713690
458.64	7244.356942
468	0.000000
Torque_23.4Hz_238.935V
0	989.134284
10.92	1009.108998
21.84	1029.905056
32.76	1051.574063
43.68	1074.172030
54.6	1097.759850
65.52	1122.403844
76.44	1148.176375
87.36	1175.156552
98.28	1203.431030
109.2	1233.094933
120.12	1264.252905
131.04	1297.020330
141.96	1331.524742
152.88	1367.907457
163.8	1406.325482
174.72	1446.953740
185.64	1489.987690
196.56	1535.646412
207.48	1584.176269
218.4	1635.855261
229.32	1690.998233
240.24	1749.963148
251.16	1813.158662
262.08	1881.053353
273	1954.187005
283.92	2033.184529
294.84	2118.773222
305.76	2211.804357
316.68	2313.280367
327.6	2424.389394
338.52	2546.549542
349.44	2681.466104
360.36	2831.206257
371.28	2998.297508
382.2	3185.858723
393.12	3397.776157
404.04	3638.941930
414.96	3915.579028
425.88	4235.684598
436.8	4609.628665
447.72	5050.935459
458.64	5577.205638
469.56	6210.864865
480.48	6978.458073
491.4	7903.837505
502.32	8978.626784
513.24	10050.821115
524.16	10441.385465
535.08	8019.916443
546	0.000000
Torque_27.3Hz_277.509V
0	862.710029
12.48	880.176150
24.96	898.362666
37.44	917.315004
49.92	937.082488
62.4	957.718762
74.88	979.282272
87.36	1001.836815
99.84	1025.452166
112.32	1050.204791
124.8	1076.178668
137.28	1103.466230
149.76	1132.169451
162.24	1162.401112
174.72	1194.286260
187.2	1227.963921
199.68	1263.589100
212.16	1301.335138
224.64	1341.396491
237.12	1383.992036
249.6	1429.369007
262.08	1477.807719
274.56	1529.627260
287.04	1585.192395
299.52	1644.921989
312	1709.299350
324.48	1778.885017
336.96	1854.332696
349.44	1936.409268
361.92	2026.020117
374.4	2124.241502
386.88	2232.362305
399.36	2351.938440
411.84	2484.864526
424.32	2633.469413
436.8	2800.645028
449.28	2990.022408
461.76	3206.215277
474.24	3455.161354
486.72	3744.605908
499.2	4084.791821
511.68	4489.442636
524.16	4977.130468
536.64	5573.025445
549.12	6310.493019
561.6	7229.694084
574.08	8360.612520
586.56	9636.344881
599.04	10512.269162
611.52	8678.220207
624	0.000000
Torque_31.2Hz_316.089V
0	764.694530
14.04	780.203655
28.08	796.353805
42.12	813.185504
56.16	830.742764
70.2	849.073461
84.24	868.229772
98.28	888.268667
112.32	909.252472
126.36	931.249512
140.4	954.334847
154.44	978.591126
168.48	1004.109564
182.52	1030.991082
196.56	1059.347628
210.6	1089.303721
224.64	1120.998263
238.68	1154.586671
252.72	1190.243398
266.76	1228.164931
280.8	1268.573367
294.84	1311.720712
308.88	1357.894069
322.92	1407.421940
336.96	1460.681927
351	1518.110211
365.04	1580.213305
379.08	1647.582725
393.12	1720.913470
407.16	1801.027508
421.2	1888.903882
435.24	1985.717727
449.28	2092.891375
463.32	2212.162079
477.36	2345.672916
491.4	2496.096463
505.44	2666.805525
519.48	2862.112486
533.52	3087.610318
547.56	3350.666430
561.6	3661.149027
575.64	4032.508490
589.68	4483.392418
603.72	5040.007438
617.76	5739.257696
631.8	6631.339846
645.84	7773.362388
659.88	9169.339069
673.92	10427.919612
687.96	9223.097339
702	0.000000
Torque_35.1Hz_354.674V
0	686.540164
15.6	700.482049
31.2	715.001052
46.8	730.133723
62.4	745.919763
78	762.402367
93.6	779.628622
109.2	797.649948
124.8	816.522611
140.4	836.308307
156	857.074833
171.6	878.896853
187.2	901.856799
202.8	926.045895
218.4	951.565367
234	978.527847
249.6	1007.059021
265.2	1037.299573
280.8	1069.407486
296.4	1103.560777
312	1139.960767
327.6	1178.836012
343.2	1220.447054
358.8	1265.092199
374.4	1313.114584
390	1364.910898
405.6	1420.942199
421.2	1481.747449
436.8	1547.960608
452.4	1620.332382
468	1699.758210
483.6	1787.314618
499.2	1884.307018
514.8	1992.333315
530.4	2113.369690
546	2249.888007
561.6	2405.019023
577.2	2582.783209
592.8	2788.423233
608.4	3028.892336
624	3313.586384
639.6	3655.463059
655.2	4072.781117
670.8	4591.817800
686.4	5250.998651
702	6106.307986
717.6	7233.194761
733.2	8691.115960
748.8	10238.235322
764.4	9661.546224
780	0.000000
Torque_39Hz_393.265V
0	622.797855
17.16	635.457462
34.32	648.641693
51.48	662.383818
68.64	676.719979
85.8	691.689508
102.96	707.335279
120.12	723.704125
137.28	740.847298
154.44	758.821006
171.6	777.687024
188.76	797.513403
205.92	818.375282
223.08	840.355836
240.24	863.547381
257.4	888.052658
274.56	913.986349
291.72	941.476856
308.88	970.668417
326.04	1001.723613
343.2	1034.826379
360.36	1070.185617
377.52	1108.039565
394.68	1148.661127
411.84	1192.364389
429	1239.512665
446.16	1290.528500
463.32	1345.906196
480.48	1406.227654
497.64	1472.182576
514.8	1544.594489
531.96	1624.454651
549.12	1712.966729
566.28	1811.606432
583.44	1922.202227
600.6	2047.046260
617.76	2189.049334
634.92	2351.961448
652.08	2540.691906
669.24	2761.784169
686.4	3024.136880
703.56	3340.125812
720.72	3727.392311
737.88	4211.750651
755.04	4831.930357
772.2	5646.911124
789.36	6744.053881
806.52	8224.504153
823.68	9980.852345
840.84	10002.633565
858	0.000000
Torque_42.9Hz_431.861V
0	569.835945
18.72	581.427607
37.44	593.500046
56.16	606.083782
74.88	619.211974
93.6	632.920708
112.32	647.249328
131.04	662.240813
149.76	677.942206
168.48	694.405101
187.2	711.686215
205.92	729.848032
224.64	748.959556
243.36	769.097184
262.08	790.345723
280.8	812.799577
299.52	836.564141
318.24	861.757445
336.96	888.512109
355.68	916.977657
374.4	947.323298
393.12	979.741266
411.84	1014.450870
430.56	1051.703416
449.28	1091.788253
468	1135.040231
486.72	1181.848981
505.44	1232.670557
524.16	1288.042166
542.88	1348.600979
561.6	1415.108408
580.32	1488.481772
599.04	1569.836117
617.76	1660.540150
636.48	1762.292156
655.2	1877.224636
673.92	2008.051065
692.64	2158.275673
711.36	2332.499660
730.08	2536.878697
748.8	2779.824064
767.52	3073.107374
786.24	3433.652763
804.96	3886.528340
823.68	4470.044946
842.4	5244.369563
861.12	6304.214239
879.84	7781.204287
898.56	9683.075841
917.28	10256.543170
936	0.000000
Torque_46.8Hz_470.461V
0	525.143691
20.28	535.832515
40.56	546.964964
60.84	558.569221
81.12	570.675909
101.4	583.318357
121.68	596.532908
141.96	610.359261
162.24	624.840877
182.52	640.025427
202.8	655.965317
223.08	672.718290
243.36	690.348123
263.64	708.925434
283.92	728.528626
304.2	749.244987
324.48	771.171981
344.76	794.418779
365.04	819.108067
385.32	845.378195
405.6	873.385764
425.88	903.308727
446.16	935.350149
466.44	969.742794
486.72	1006.754742
507	1046.696340
527.28	1089.928843
547.56	1136.875280
567.84	1188.034190
588.12	1243.997206
608.4	1305.471757
628.68	1373.310726
648.96	1448.551672
669.24	1532.469380
689.52	1626.647329
709.8	1733.076431
730.08	1854.293913
750.36	1993.582511
770.64	2155.262504
790.92	2345.130338
811.2	2571.135537
831.48	2844.457132
851.76	3181.272441
872.04	3605.765376
892.32	4155.409948
912.6	4890.402430
932.88	5909.620399
953.16	7366.423430
973.44	9364.143565
993.72	10433.817636
1014	0.000000
Torque_50.7Hz_509.066V
0	486.931222
21.84	496.846998
43.68	507.174531
65.52	517.939997
87.36	529.171838
109.2	540.901012
131.04	553.161277
152.88	565.989517
174.72	579.426105
196.56	593.515336
218.4	608.305906
240.24	623.851473
262.08	640.211311
283.92	657.451058
305.76	675.643594
327.6	694.870068
349.44	715.221103
371.28	736.798219
393.12	759.715520
414.96	784.101702
436.8	810.102460
458.64	837.883386
480.48	867.633482
502.32	899.569437
524.16	933.940880
546	971.036879
567.84	1011.194024
589.68	1054.806590
611.52	1102.339413
633.36	1154.344366
655.2	1211.481656
677.04	1274.547680
698.88	1344.511899
720.72	1422.566317
742.56	1510.192865
764.4	1609.256685
786.24	1722.137622
808.08	1851.919332
829.92	2002.667441
851.76	2179.849080
873.6	2390.983790
895.44	2646.685918
917.28	2962.394130
939.12	3361.354273
960.96	3879.972973
982.8	4577.744133
1004.64	5555.505929
1026.48	6981.685932
1048.32	9037.276217
1070.16	10544.799050
1092	0.000000
Torque_54.6Hz_547.675V
0	453.888898
23.4	463.135451
46.8	472.766134
70.2	482.805379
93.6	493.279736
117	504.218101
140.4	515.651990
163.8	527.615834
187.2	540.147330
210.6	553.287833
234	567.082812
257.4	581.582376
280.8	596.841879
304.2	612.922624
327.6	629.892685
351	647.827865
374.4	666.812828
397.8	686.942426
421.2	708.323282
444.6	731.075671
468	755.335772
491.4	781.258388
514.8	809.020230
538.2	838.823938
561.6	870.903004
585	905.527864
608.4	943.013494
631.8	983.728954
655.2	1028.109485
678.6	1076.672000
702	1130.035131
725.4	1188.945459
748.8	1254.312268
772.2	1327.254241
795.6	1409.163126
819	1501.792000
842.4	1607.379913
865.8	1728.831530
889.2	1869.982057
912.6	2035.998135
936	2234.002451
959.4	2474.079557
982.8	2770.957303
1006.2	3146.938040
1029.6	3637.246210
1053	4300.221118
1076.4	5237.146326
1099.8	6626.501961
1123.2	8711.337644
1146.6	10599.250257
1170	0.000000
Torque_58.5Hz_586.289V
0	425.036794
24.96	433.698444
49.92	442.720051
74.88	452.124518
99.84	461.936736
124.8	472.183796
149.76	482.895247
174.72	494.103371
199.68	505.843516
224.64	518.154459
249.6	531.078842
274.56	544.663657
299.52	558.960818
324.48	574.027826
349.44	589.928531
374.4	606.734046
399.36	624.523797
424.32	643.386778
449.28	663.423038
474.24	684.745445
499.2	707.481809
524.16	731.777435
549.12	757.798219
574.08	785.734422
599.04	815.805310
624	848.264890
648.96	883.409063
673.92	921.584615
698.88	963.200621
723.84	1008.743059
748.8	1058.793724
773.76	1114.054998
798.72	1175.382698
823.68	1243.830236
848.64	1320.708906
873.6	1407.671553
898.56	1506.830900
923.52	1620.930383
948.48	1753.596623
973.44	1909.722492
998.4	2096.065959
1023.36	2322.218700
1048.32	2602.235039
1073.28	2957.495772
1098.24	3421.999648
1123.2	4052.662618
1148.16	4950.181164
1173.12	6299.343532
1198.08	8392.100161
1223.04	10606.125741
1248	0.000000
Torque_62.4Hz_624.908V
0	399.627323
26.52	407.773464
53.04	416.258236
79.56	425.103194
106.08	434.331760
132.6	443.969434
159.12	454.044024
185.64	464.585917
212.16	475.628380
238.68	487.207918
265.2	499.364669
291.72	512.142869
318.24	525.591394
344.76	539.764376
371.28	554.721937
397.8	570.531032
424.32	587.266456
450.84	605.012017
477.36	623.861940
503.88	643.922536
530.4	665.314197
556.92	688.173813
583.44	712.657685
609.96	738.945097
636.48	767.242691
663	797.789885
689.52	830.865631
716.04	866.796914
742.56	905.969531
769.08	948.841915
795.6	995.963030
822.12	1047.995823
848.64	1105.748345
875.16	1170.215616
901.68	1242.636824
928.2	1324.574797
954.72	1418.028519
981.24	1525.595808
1007.76	1650.714155
1034.28	1798.026931
1060.8	1973.957456
1087.32	2187.640893
1113.84	2452.499043
1140.36	2789.027894
1166.88	3230.000582
1193.4	3830.761569
1219.92	4690.725486
1246.44	5998.207524
1272.96	8083.174956
1299.48	10573.457764
1326	0.000000
Torque_66.3Hz_663.531V
0	377.080374
28.08	384.768787
56.16	392.776881
84.24	401.125009
112.32	409.835293
140.4	418.931810
168.48	428.440824
196.56	438.391032
224.64	448.813855
252.72	459.743770
280.8	471.218687
308.88	483.280392
336.96	495.975053
365.04	509.353805
393.12	523.473445
421.2	538.397229
449.28	554.195821
477.36	570.948410
505.44	588.744031
533.52	607.683146
561.6	627.879535
589.68	649.462576
617.76	672.580013
645.84	697.401329
673.92	724.121891
702	752.968084
730.08	784.203713
758.16	818.138051
786.24	855.136067
814.32	895.631526
842.4	940.143971
870.48	989.300978
898.56	1043.867709
926.64	1104.786688
954.72	1173.232191
982.8	1250.685869
1010.88	1339.043922
1038.96	1440.772245
1067.04	1559.136436
1095.12	1698.552175
1123.2	1865.135734
1151.28	2067.600279
1179.36	2318.776587
1207.44	2638.319905
1235.52	3057.804002
1263.6	3630.932966
1291.68	4455.381337
1319.76	5720.934487
1347.84	7786.681157
1375.92	10508.325599
1404	0.000000
Torque_70.2Hz_702.158V
0	356.938989
29.64	364.218288
59.28	371.800319
88.92	379.704362
118.56	387.951369
148.2	396.564150
177.84	405.567583
207.48	414.988852
237.12	424.857724
266.76	435.206861
296.4	446.072180
326.04	457.493269
355.68	469.513870
385.32	482.182434
414.96	495.552778
444.6	509.684842
474.24	524.645591
503.88	540.510068
533.52	557.362656
563.16	575.298571
592.8	594.425660
622.44	614.866564
652.08	636.761344
681.72	660.270682
711.36	685.579822
741	712.903439
770.64	742.491720
800.28	774.638017
829.92	809.688558
859.56	848.054905
889.2	890.230097
918.84	936.809828
948.48	988.520563
978.12	1046.257420
1007.76	1111.135980
1037.4	1184.564390
1067.04	1268.345628
1096.68	1364.825680
1126.32	1477.113499
1155.96	1609.416575
1185.6	1767.569188
1215.24	1959.894609
1244.88	2198.672845
1274.52	2502.765312
1304.16	2902.587821
1333.8	3450.187039
1363.44	4241.205110
1393.08	5465.383850
1422.72	7503.720123
1452.36	10416.880719
1482	0.000000
Torque_74.1Hz_740.79V
0	338.835379
31.2	345.746786
62.4	352.945676
93.6	360.450361
124.8	368.280741
156	376.458484
187.2	385.007220
218.4	393.952773
249.6	403.323418
280.8	413.150182
312	423.467186
343.2	434.312040
374.4	445.726298
405.6	457.755994
436.8	470.452258
468	483.872044
499.2	498.078977
530.4	513.144368
561.6	529.148401
592.8	546.181563
624	564.346347
655.2	583.759318
686.4	604.553601
717.6	626.881936
748.8	650.920425
780	676.873166
811.2	704.978044
842.4	735.514020
873.6	768.810374
904.8	805.258581
936	845.327693
967.2	889.584524
998.4	938.720466
1029.6	993.587628
1060.8	1055.248295
1092	1125.043788
1123.2	1204.692206
1154.4	1296.430172
1185.6	1403.223459
1216.8	1529.088728
1248	1679.600835
1279.2	1862.722595
1310.4	2090.221247
1341.6	2380.211329
1372.8	2762.000046
1404	3285.992694
1435.2	4045.622414
1466.4	5229.478831
1497.6	7234.644285
1528.8	10304.315202
1560	0.000000
Torque_78Hz_779.423V
0	292.708068
32.76	298.680178
65.52	304.900738
98.28	311.385576
131.04	318.151894
163.8	325.218422
196.56	332.605586
229.32	340.335710
262.08	348.433236
294.84	356.924986
327.6	365.840459
360.36	375.212168
393.12	385.076039
425.88	395.471872
458.64	406.443874
491.4	418.041288
524.16	430.319129
556.92	443.339058
589.68	457.170413
622.44	471.891443
655.2	487.590787
687.96	504.369255
720.72	522.341988
753.48	541.641101
786.24	562.418925
819	584.852025
851.76	609.146211
884.52	635.542853
917.28	664.326892
950.04	695.837132
982.8	730.479569
1015.56	768.744897
1048.32	811.231771
1081.08	858.678154
1113.84	912.004260
1146.6	972.372353
1179.36	1041.271692
1212.12	1120.641797
1244.88	1213.055784
1277.64	1322.000720
1310.4	1452.320295
1343.16	1610.940159
1375.92	1808.109090
1408.68	2059.634533
1441.44	2391.162832
1474.2	2846.994813
1506.96	3509.855804
1539.72	4549.167993
1572.48	6335.746776
1605.24	9236.738097
1638	0.000000
Torque_81.9Hz_779.423V
0	254.578728
34.32	259.774256
68.64	265.185954
102.96	270.827597
137.28	276.714155
171.6	282.861926
205.92	289.288688
240.24	296.013866
274.56	303.058734
308.88	310.446636
343.2	318.203242
377.52	326.356851
411.84	334.938733
